# MSD for model_b_900K from trajectories/model_b_ramp_900K.lammpstrj
# unwrapped=True; n_li=4; dt_fs=0.25; frame_steps=100; frame_dt_ps=0.025000
# columns: lag time (ps), 3D MSD, x-y MSD, z MSD (all A^2), time origins averaged, Li atoms averaged
time_ps,msd_3d_A2,msd_xy_A2,msd_z_A2,n_origins,n_li
0.000000,0.000000,0.000000,0.000000,0,4
0.025000,0.163282,0.097820,0.065462,400,4
0.050000,0.545493,0.317687,0.227807,399,4
0.075000,1.023311,0.600810,0.422501,398,4
0.100000,1.519293,0.929529,0.589763,397,4
0.125000,1.981900,1.288885,0.693015,396,4
0.150000,2.400925,1.675978,0.724947,395,4
0.175000,2.786633,2.086124,0.700509,394,4
0.200000,3.166795,2.521175,0.645620,393,4
0.225000,3.573714,2.984463,0.589251,392,4
0.250000,4.035187,3.481331,0.553856,391,4
0.275000,4.566262,4.015239,0.551023,390,4
0.300000,5.165753,4.585735,0.580018,389,4
0.325000,5.821368,5.192792,0.628577,388,4
0.350000,6.513485,5.834647,0.678838,387,4
0.375000,7.220893,6.506261,0.714632,386,4
0.400000,7.927581,7.200685,0.726897,385,4
0.425000,8.629636,7.914510,0.715125,384,4
0.450000,9.334285,8.647861,0.686424,383,4
0.475000,10.049923,9.398673,0.651251,382,4
0.500000,10.785022,10.164190,0.620832,381,4
0.525000,11.553022,10.949725,0.603297,380,4
0.550000,12.365448,11.763305,0.602143,379,4
0.575000,13.224183,12.608447,0.615737,378,4
0.600000,14.123325,13.485374,0.637951,377,4
0.625000,15.051577,14.390170,0.661407,376,4
0.650000,15.998890,15.318673,0.680217,375,4
0.675000,16.957921,16.266199,0.691723,374,4
0.700000,17.922788,17.227349,0.695439,373,4
0.725000,18.891925,18.199609,0.692316,372,4
0.750000,19.864421,19.180472,0.683949,371,4
0.775000,20.850041,20.176083,0.673958,370,4
0.800000,21.859095,21.191772,0.667322,369,4
0.825000,22.898577,22.230672,0.667905,368,4
0.850000,23.970613,23.293712,0.676900,367,4
0.875000,25.069583,24.379018,0.690565,366,4
0.900000,26.191410,25.488237,0.703172,365,4
0.925000,27.330936,26.620280,0.710656,364,4
0.950000,28.485648,27.773698,0.711950,363,4
0.975000,29.652976,28.946022,0.706955,362,4
1.000000,30.830880,30.135564,0.695316,361,4
1.025000,32.019058,31.340073,0.678985,360,4
1.050000,33.222235,32.558866,0.663370,359,4
1.075000,34.450862,33.794015,0.656847,358,4
1.100000,35.711267,35.045696,0.665571,357,4
1.125000,37.007288,36.319861,0.687428,356,4
1.150000,38.332275,37.618393,0.713882,355,4
1.175000,39.669364,38.935436,0.733927,354,4
1.200000,41.007471,40.266903,0.740567,353,4
1.225000,42.343848,41.609701,0.734147,352,4
1.250000,43.684096,42.962446,0.721650,351,4
1.275000,45.036255,44.323454,0.712800,350,4
1.300000,46.401849,45.688700,0.713149,349,4
1.325000,47.781684,47.058668,0.723016,348,4
1.350000,49.177617,48.439321,0.738296,347,4
1.375000,50.587789,49.833808,0.753981,346,4
1.400000,52.003062,51.239225,0.763836,345,4
1.425000,53.417794,52.655086,0.762708,344,4
1.450000,54.826721,54.080672,0.746049,343,4
1.475000,56.224458,55.512045,0.712413,342,4
1.500000,57.615432,56.950514,0.664918,341,4
1.525000,59.005143,58.392763,0.612380,340,4
1.550000,60.400207,59.834714,0.565493,339,4
1.575000,61.813272,61.279855,0.533417,338,4
1.600000,63.252067,62.732876,0.519191,337,4
1.625000,64.717664,64.194408,0.523256,336,4
1.650000,66.213206,65.669492,0.543714,335,4
1.675000,67.736313,67.160762,0.575551,334,4
1.700000,69.274738,68.664609,0.610129,333,4
1.725000,70.809192,70.172488,0.636704,332,4
1.750000,72.333413,71.685485,0.647928,331,4
1.775000,73.848741,73.208122,0.640620,330,4
1.800000,75.353676,74.734559,0.619117,329,4
1.825000,76.850726,76.257621,0.593105,328,4
1.850000,78.349488,77.775388,0.574101,327,4
1.875000,79.863331,79.291575,0.571756,326,4
1.900000,81.402500,80.810495,0.592005,325,4
1.925000,82.959555,82.329057,0.630498,324,4
1.950000,84.522989,83.846571,0.676417,323,4
1.975000,86.077836,85.361142,0.716695,322,4
2.000000,87.613261,86.872465,0.740796,321,4
2.025000,89.127879,88.383228,0.744651,320,4
2.050000,90.631094,89.899080,0.732015,319,4
2.075000,92.127955,91.418826,0.709128,318,4
2.100000,93.623786,92.942290,0.681496,317,4
2.125000,95.131636,94.476465,0.655171,316,4
2.150000,96.657145,96.020589,0.636556,315,4
2.175000,98.200172,97.569976,0.630196,314,4
2.200000,99.761878,99.124019,0.637858,313,4
2.225000,101.353165,100.695734,0.657431,312,4
2.250000,102.967972,102.286506,0.681465,311,4
2.275000,104.589976,103.890110,0.699866,310,4
2.300000,106.213282,105.508519,0.704763,309,4
2.325000,107.837959,107.142807,0.695152,308,4
2.350000,109.465135,108.789871,0.675264,307,4
2.375000,111.092853,110.440897,0.651957,306,4
2.400000,112.725274,112.090677,0.634597,305,4
2.425000,114.360405,113.730348,0.630056,304,4
2.450000,116.006446,115.363671,0.642775,303,4
2.475000,117.668916,116.997194,0.671722,302,4
2.500000,119.340640,118.630307,0.710333,301,4
2.525000,121.013361,120.264727,0.748634,300,4
2.550000,122.688100,121.912382,0.775718,299,4
2.575000,124.358703,123.574396,0.784307,298,4
2.600000,126.023220,125.248571,0.774648,297,4
2.625000,127.688700,126.934019,0.754681,296,4
2.650000,129.352602,128.619557,0.733045,295,4
2.675000,131.022852,130.306687,0.716165,294,4
2.700000,132.704445,131.996815,0.707630,293,4
2.725000,134.403810,133.693383,0.710427,292,4
2.750000,136.128681,135.403640,0.725040,291,4
2.775000,137.868654,137.123296,0.745358,290,4
2.800000,139.613082,138.848754,0.764328,289,4
2.825000,141.353937,140.578797,0.775140,288,4
2.850000,143.086731,142.311789,0.774942,287,4
2.875000,144.811200,144.044874,0.766326,286,4
2.900000,146.535129,145.778903,0.756226,285,4
2.925000,148.268864,147.517134,0.751729,284,4
2.950000,150.012238,149.257666,0.754571,283,4
2.975000,151.753822,150.991023,0.762799,282,4
3.000000,153.487445,152.714869,0.772576,281,4
3.025000,155.209715,154.433390,0.776325,280,4
3.050000,156.915359,156.147401,0.767957,279,4
3.075000,158.610304,157.862309,0.747996,278,4
3.100000,160.303150,159.579640,0.723510,277,4
3.125000,162.003240,161.299746,0.703494,276,4
3.150000,163.712028,163.015336,0.696692,275,4
3.175000,165.438751,164.734919,0.703832,274,4
3.200000,167.181734,166.459463,0.722270,273,4
3.225000,168.933901,168.189001,0.744900,272,4
3.250000,170.687125,169.923121,0.764004,271,4
3.275000,172.436530,171.663233,0.773298,270,4
3.300000,174.178390,173.407141,0.771249,269,4
3.325000,175.901878,175.144351,0.757527,268,4
3.350000,177.600209,176.865534,0.734675,267,4
3.375000,179.283880,178.575900,0.707981,266,4
3.400000,180.969038,180.285095,0.683944,265,4
3.425000,182.665239,181.996064,0.669175,264,4
3.450000,184.363407,183.696724,0.666683,263,4
3.475000,186.058961,185.384261,0.674701,262,4
3.500000,187.750507,187.062076,0.688430,261,4
3.525000,189.436493,188.733022,0.703471,260,4
3.550000,191.110550,190.392301,0.718249,259,4
3.575000,192.764047,192.034756,0.729291,258,4
3.600000,194.393631,193.661755,0.731876,257,4
3.625000,195.998692,195.272219,0.726473,256,4
3.650000,197.571588,196.855770,0.715818,255,4
3.675000,199.121445,198.419795,0.701650,254,4
3.700000,200.657441,199.969655,0.687786,253,4
3.725000,202.181295,201.503085,0.678210,252,4
3.750000,203.695869,203.019617,0.676252,251,4
3.775000,205.201997,204.522365,0.679632,250,4
3.800000,206.699348,206.015957,0.683391,249,4
3.825000,208.172535,207.488167,0.684369,248,4
3.850000,209.620257,208.936845,0.683412,247,4
3.875000,211.044332,210.363457,0.680876,246,4
3.900000,212.453664,211.777004,0.676659,245,4
3.925000,213.847519,213.175431,0.672088,244,4
3.950000,215.216437,214.548596,0.667840,243,4
3.975000,216.571020,215.906980,0.664040,242,4
4.000000,217.915820,217.255544,0.660277,241,4
4.025000,219.256262,218.599648,0.656614,240,4
4.050000,220.593517,219.939514,0.654003,239,4
4.075000,221.917292,221.263821,0.653471,238,4
4.100000,223.207149,222.553420,0.653729,237,4
4.125000,224.458686,223.804590,0.654096,236,4
4.150000,225.683244,225.028009,0.655235,235,4
4.175000,226.879264,226.220913,0.658351,234,4
4.200000,228.059305,227.395149,0.664156,233,4
4.225000,229.229494,228.554558,0.674936,232,4
4.250000,230.392508,229.704547,0.687961,231,4
4.275000,231.548282,230.846979,0.701303,230,4
4.300000,232.695711,231.981930,0.713781,229,4
4.325000,233.817587,233.096117,0.721470,228,4
4.350000,234.912560,234.189545,0.723015,227,4
4.375000,235.989823,235.270654,0.719169,226,4
4.400000,237.049714,236.339003,0.710711,225,4
4.425000,238.091775,237.391869,0.699906,224,4
4.450000,239.114635,238.426606,0.688030,223,4
4.475000,240.103622,239.427581,0.676041,222,4
4.500000,241.052536,240.386020,0.666517,221,4
4.525000,241.972808,241.310713,0.662095,220,4
4.550000,242.871956,242.207887,0.664069,219,4
4.575000,243.731922,243.062806,0.669116,218,4
4.600000,244.551051,243.879220,0.671830,217,4
4.625000,245.324764,244.653679,0.671085,216,4
4.650000,246.049225,245.383273,0.665952,215,4
4.675000,246.736635,246.077933,0.658702,214,4
4.700000,247.389469,246.739894,0.649575,213,4
4.725000,248.013039,247.369494,0.643545,212,4
4.750000,248.624568,247.981076,0.643492,211,4
4.775000,249.215985,248.565207,0.650777,210,4
4.800000,249.786033,249.120591,0.665442,209,4
4.825000,250.334042,249.650083,0.683960,208,4
4.850000,250.845250,250.143103,0.702147,207,4
4.875000,251.314852,250.597354,0.717498,206,4
4.900000,251.754005,251.027351,0.726654,205,4
4.925000,252.155138,251.429416,0.725722,204,4
4.950000,252.514090,251.798357,0.715733,203,4
4.975000,252.819138,252.119889,0.699249,202,4
5.000000,253.076939,252.396103,0.680837,201,4
5.025000,253.267265,252.600995,0.666269,200,4
5.050000,253.408789,252.749354,0.659436,199,4
5.075000,253.532486,252.872741,0.659745,198,4
5.100000,253.617351,252.953961,0.663390,197,4
5.125000,253.665583,252.998128,0.667455,196,4
5.150000,253.664961,252.992171,0.672790,195,4
5.175000,253.628545,252.950160,0.678385,194,4
5.200000,253.542384,252.858813,0.683571,193,4
5.225000,253.399726,252.713521,0.686205,192,4
5.250000,253.203310,252.519178,0.684133,191,4
5.275000,252.960534,252.282848,0.677686,190,4
5.300000,252.681211,252.011617,0.669594,189,4
5.325000,252.367944,251.709140,0.658803,188,4
5.350000,252.022472,251.377283,0.645188,187,4
5.375000,251.657801,251.024083,0.633717,186,4
5.400000,251.298652,250.671414,0.627238,185,4
5.425000,250.923317,250.291237,0.632080,184,4
5.450000,250.534160,249.886265,0.647895,183,4
5.475000,250.134608,249.464338,0.670270,182,4
5.500000,249.709093,249.018263,0.690829,181,4
5.525000,249.231803,248.529613,0.702190,180,4
5.550000,248.695255,247.994869,0.700386,179,4
5.575000,248.096840,247.410995,0.685845,178,4
5.600000,247.452254,246.788394,0.663860,177,4
5.625000,246.785311,246.142875,0.642436,176,4
5.650000,246.081192,245.454364,0.626828,175,4
5.675000,245.348954,244.729056,0.619898,174,4
5.700000,244.618259,243.997518,0.620741,173,4
5.725000,243.882691,243.255683,0.627008,172,4
5.750000,243.132197,242.496649,0.635547,171,4
5.775000,242.367954,241.726019,0.641935,170,4
5.800000,241.583150,240.935880,0.647271,169,4
5.825000,240.785794,240.133098,0.652696,168,4
5.850000,239.980387,239.319965,0.660423,167,4
5.875000,239.191939,238.518191,0.673748,166,4
5.900000,238.416946,237.730345,0.686601,165,4
5.925000,237.642298,236.948518,0.693781,164,4
5.950000,236.852392,236.159261,0.693131,163,4
5.975000,236.063791,235.380093,0.683698,162,4
6.000000,235.317772,234.651824,0.665947,161,4
6.025000,234.585390,233.943322,0.642067,160,4
6.050000,233.861466,233.243440,0.618027,159,4
6.075000,233.129408,232.527498,0.601911,158,4
6.100000,232.414869,231.815486,0.599383,157,4
6.125000,231.713105,231.100546,0.612559,156,4
6.150000,231.006973,230.370986,0.635987,155,4
6.175000,230.294587,229.638091,0.656496,154,4
6.200000,229.572902,228.915101,0.657801,153,4
6.225000,228.846720,228.214234,0.632486,152,4
6.250000,228.080414,227.492428,0.587987,151,4
6.275000,227.288601,226.749293,0.539308,150,4
6.300000,226.511905,226.009424,0.502481,149,4
6.325000,225.776024,225.289486,0.486537,148,4
6.350000,225.052336,224.560743,0.491592,147,4
6.375000,224.292464,223.785185,0.507278,146,4
6.400000,223.494892,222.971594,0.523298,145,4
6.425000,222.677568,222.146408,0.531160,144,4
6.450000,221.855893,221.323178,0.532714,143,4
6.475000,221.043474,220.509522,0.533952,142,4
6.500000,220.241272,219.705414,0.535858,141,4
6.525000,219.467407,218.926918,0.540489,140,4
6.550000,218.739566,218.188757,0.550809,139,4
6.575000,218.043901,217.480688,0.563213,138,4
6.600000,217.375151,216.800885,0.574266,137,4
6.625000,216.726086,216.141981,0.584104,136,4
6.650000,216.105945,215.509960,0.595985,135,4
6.675000,215.518034,214.906978,0.611056,134,4
6.700000,214.941217,214.314135,0.627082,133,4
6.725000,214.388918,213.749968,0.638950,132,4
6.750000,213.858431,213.220040,0.638391,131,4
6.775000,213.326852,212.704904,0.621949,130,4
6.800000,212.820910,212.225500,0.595410,129,4
6.825000,212.354355,211.790827,0.563529,128,4
6.850000,211.945238,211.411978,0.533259,127,4
6.875000,211.597605,211.087966,0.509639,126,4
6.900000,211.278836,210.783217,0.495619,125,4
6.925000,211.008150,210.521260,0.486890,124,4
6.950000,210.783079,210.301921,0.481157,123,4
6.975000,210.619791,210.143469,0.476323,122,4
7.000000,210.505724,210.032280,0.473444,121,4
7.025000,210.412521,209.941419,0.471101,120,4
7.050000,210.363733,209.895394,0.468339,119,4
7.075000,210.367159,209.902651,0.464508,118,4
7.100000,210.433453,209.972123,0.461330,117,4
7.125000,210.547875,210.088892,0.458983,116,4
7.150000,210.712215,210.254112,0.458103,115,4
7.175000,210.944066,210.482859,0.461207,114,4
7.200000,211.222383,210.756960,0.465423,113,4
7.225000,211.532137,211.066787,0.465349,112,4
7.250000,211.847367,211.390336,0.457031,111,4
7.275000,212.149081,211.707771,0.441310,110,4
7.300000,212.406896,211.981029,0.425867,109,4
7.325000,212.655107,212.238287,0.416820,108,4
7.350000,212.904472,212.482101,0.422371,107,4
7.375000,213.128310,212.685977,0.442333,106,4
7.400000,213.349817,212.880097,0.469720,105,4
7.425000,213.560334,213.066522,0.493812,104,4
7.450000,213.798768,213.293660,0.505108,103,4
7.475000,214.077097,213.576440,0.500658,102,4
7.500000,214.423005,213.940775,0.482230,101,4
7.525000,214.821399,214.361177,0.460221,100,4
7.550000,215.217398,214.770407,0.446991,99,4
7.575000,215.576185,215.124712,0.451473,98,4
7.600000,215.892973,215.418415,0.474558,97,4
7.625000,216.168095,215.660243,0.507851,96,4
7.650000,216.425638,215.884420,0.541218,95,4
7.675000,216.694489,216.130130,0.564360,94,4
7.700000,216.961647,216.389142,0.572505,93,4
7.725000,217.260529,216.698074,0.562454,92,4
7.750000,217.615045,217.076740,0.538306,91,4
7.775000,218.025732,217.514625,0.511107,90,4
7.800000,218.491898,217.998929,0.492969,89,4
7.825000,218.991932,218.501225,0.490707,88,4
7.850000,219.481844,218.980100,0.501743,87,4
7.875000,219.901007,219.382723,0.518284,86,4
7.900000,220.282394,219.753637,0.528757,85,4
7.925000,220.670963,220.147020,0.523943,84,4
7.950000,221.064635,220.560290,0.504345,83,4
7.975000,221.435829,220.963078,0.472750,82,4
8.000000,221.771834,221.332629,0.439205,81,4
8.025000,222.113901,221.697140,0.416761,80,4
8.050000,222.473693,222.059328,0.414365,79,4
8.075000,222.873056,222.441114,0.431941,78,4
8.100000,223.283244,222.823366,0.459878,77,4
8.125000,223.639333,223.153753,0.485580,76,4
8.150000,223.913903,223.412951,0.500952,75,4
8.175000,224.118674,223.613516,0.505158,74,4
8.200000,224.267321,223.767149,0.500172,73,4
8.225000,224.409298,223.920966,0.488332,72,4
8.250000,224.621313,224.143053,0.478260,71,4
8.275000,224.896508,224.414441,0.482066,70,4
8.300000,225.261391,224.755981,0.505410,69,4
8.325000,225.717591,225.175171,0.542421,68,4
8.350000,226.179650,225.598502,0.581148,67,4
8.375000,226.579181,225.966721,0.612460,66,4
8.400000,226.890487,226.263335,0.627152,65,4
8.425000,227.065972,226.450952,0.615020,64,4
8.450000,227.068632,226.494788,0.573845,63,4
8.475000,226.977556,226.462508,0.515048,62,4
8.500000,226.880798,226.430750,0.450048,61,4
8.525000,226.738633,226.344237,0.394396,60,4
8.550000,226.573303,226.214267,0.359037,59,4
8.575000,226.361468,226.010008,0.351460,58,4
8.600000,226.106622,225.739853,0.366769,57,4
8.625000,225.842606,225.448676,0.393930,56,4
8.650000,225.489305,225.068998,0.420307,55,4
8.675000,225.144659,224.705035,0.439624,54,4
8.700000,224.776500,224.333158,0.443342,53,4
8.725000,224.401375,223.969414,0.431961,52,4
8.750000,224.030645,223.621662,0.408983,51,4
8.775000,223.616459,223.235485,0.380975,50,4
8.800000,223.260439,222.902118,0.358321,49,4
8.825000,222.913744,222.564712,0.349032,48,4
8.850000,222.614276,222.263302,0.350974,47,4
8.875000,222.374802,222.014508,0.360294,46,4
8.900000,222.018302,221.643920,0.374383,45,4
8.925000,221.565907,221.177146,0.388762,44,4
8.950000,220.894438,220.491704,0.402734,43,4
8.975000,220.064816,219.655529,0.409287,42,4
9.000000,219.235386,218.832583,0.402803,41,4
9.025000,218.421223,218.038737,0.382486,40,4
9.050000,217.686712,217.331691,0.355021,39,4
9.075000,217.027060,216.693310,0.333750,38,4
9.100000,216.397177,216.069277,0.327900,37,4
9.125000,215.716645,215.379399,0.337246,36,4
9.150000,215.012642,214.653467,0.359175,35,4
9.175000,214.325275,213.936584,0.388691,34,4
9.200000,213.734311,213.323404,0.410907,33,4
9.225000,213.262098,212.847649,0.414449,32,4
9.250000,212.633680,212.230734,0.402946,31,4
9.275000,211.902657,211.525937,0.376720,30,4
9.300000,211.059096,210.718080,0.341016,29,4
9.325000,210.107633,209.797039,0.310595,28,4
9.350000,209.288144,208.992957,0.295187,27,4
9.375000,208.446218,208.138062,0.308157,26,4
9.400000,207.713763,207.367412,0.346351,25,4
9.425000,206.987201,206.591035,0.396165,24,4
9.450000,206.426860,205.995459,0.431401,23,4
9.475000,206.000599,205.570561,0.430037,22,4
9.500000,205.586552,205.200446,0.386106,21,4
9.525000,205.275292,204.957772,0.317520,20,4
9.550000,204.975489,204.716898,0.258591,19,4
9.575000,204.580496,204.339647,0.240848,18,4
9.600000,204.020116,203.751030,0.269086,17,4
9.625000,203.362371,203.040743,0.321628,16,4
9.650000,202.541464,202.163911,0.377553,15,4
9.675000,201.736836,201.327637,0.409199,14,4
9.700000,200.845713,200.450562,0.395151,13,4
9.725000,199.778788,199.440310,0.338478,12,4
9.750000,198.538969,198.270302,0.268667,11,4
9.775000,197.643601,197.433018,0.210584,10,4
9.800000,196.885674,196.702324,0.183350,9,4
9.825000,196.040768,195.849423,0.191346,8,4
9.850000,195.939539,195.726813,0.212725,7,4
9.875000,195.670100,195.421741,0.248359,6,4
9.900000,195.034024,194.770479,0.263546,5,4
9.925000,194.140237,193.899230,0.241007,4,4
9.950000,192.722669,192.480318,0.242351,3,4
9.975000,191.637652,191.394168,0.243483,2,4
10.000000,192.991787,192.789621,0.202166,1,4
